P (Pa),nexc (mol/kg)
140000.00,1.93
165000.00,2.43
290000.00,3.16
481000.00,4.39
597000.00,4.97
797000.00,5.73
1014000.00,6.38
1247000.00,6.99
1690000.00,8.01
1957000.00,8.62
2215000.00,9.16
2575000.00,9.77
2975000.00,10.39
3209000.00,10.97
3552000.00,11.29
4003000.00,12.08